Material: Be9 , density =  1.850000 g/cm^3
Absorber is made of 1 elements
Be9 100% z =   4, a = 9.000000
Z =   1, num = 114
   0.11   6.4400e-001   8.3710e-004        0.1758     0.0105   1.4097e-002  
   0.12   6.2730e-001   7.7890e-004        0.1905     0.0109   1.4615e-002  
   0.13   6.1120e-001   7.2880e-004        0.2072     0.0113   1.5114e-002  
   0.14   5.9590e-001   6.8510e-004        0.2239     0.0117   1.5632e-002  
   0.15   5.8130e-001   6.4680e-004        0.2405     0.0121   1.6150e-002  
   0.16   5.6750e-001   6.1270e-004        0.2590     0.0125   1.6687e-002  
   0.17   5.5440e-001   5.8240e-004        0.2756     0.0129   1.7223e-002  
   0.18   5.4200e-001   5.5510e-004        0.2942     0.0133   1.7760e-002  
   0.20   5.1910e-001   5.0790e-004        0.3311     0.0147   1.8870e-002  
   0.22   4.9360e-001   4.5980e-004        0.3811     0.0166   2.0294e-002  
   0.25   4.7110e-001   4.2050e-004        0.4329     0.0185   2.1774e-002  
   0.27   4.5090e-001   3.8780e-004        0.4866     0.0204   2.3310e-002  
   0.30   4.3280e-001   3.6010e-004        0.5421     0.0223   2.4919e-002  
   0.32   4.1640e-001   3.3630e-004        0.6012     0.0241   2.6566e-002  
   0.35   4.0140e-001   3.1560e-004        0.6623     0.0260   2.8249e-002  
   0.37   3.8770e-001   2.9750e-004        0.7252     0.0279   3.0007e-002  
   0.40   3.7510e-001   2.8140e-004        0.7918     0.0297   3.1801e-002  
   0.45   3.5260e-001   2.5430e-004        0.9287     0.0362   3.5557e-002  
   0.50   3.3320e-001   2.3220e-004        1.0730     0.0423   3.9497e-002  
   0.55   3.1620e-001   2.1390e-004        1.2265     0.0483   4.3623e-002  
   0.60   3.0110e-001   1.9830e-004        1.3894     0.0541   4.7934e-002  
   0.64   2.8770e-001   1.8500e-004        1.5577     0.0599   5.2392e-002  
   0.69   2.7560e-001   1.7350e-004        1.7353     0.0657   5.7035e-002  
   0.79   2.5470e-001   1.5440e-004        2.1127     0.0859   6.6804e-002  
   0.89   2.3730e-001   1.3930e-004        2.5178     0.1047   7.7182e-002  
   0.99   2.2250e-001   1.2710e-004        2.9526     0.1227   8.8171e-002  
   1.09   2.0880e-001   1.1690e-004        3.4151     0.1405   9.9733e-002  
   1.19   1.9520e-001   1.0830e-004        3.9109     0.1584   1.1198e-001  
   1.29   1.8400e-001   1.0090e-004        4.4381     0.1767   1.2491e-001  
   1.39   1.7430e-001   9.4560e-005        4.9950     0.1942   1.3851e-001  
   1.49   1.6570e-001   8.8980e-005        5.5814     0.2146   1.5277e-001  
   1.59   1.5800e-001   8.4050e-005        6.1993     0.2331   1.6767e-001  
   1.69   1.5110e-001   7.9670e-005        6.8450     0.2516   1.8321e-001  
   1.79   1.4480e-001   7.5750e-005        7.5203     0.2720   1.9980e-001  
   1.98   1.3390e-001   6.9000e-005        8.9540     0.3423   2.3310e-001  
   2.23   1.2250e-001   6.2160e-005       10.9039     0.4440   2.7935e-001  
   2.48   1.1310e-001   5.6610e-005       13.0259     0.5402   3.2930e-001  
   2.73   1.0510e-001   5.2010e-005       15.3162     0.6364   3.8295e-001  
   2.98   9.8350e-002   4.8130e-005       17.7711     0.7289   4.4030e-001  
   3.22   9.2450e-002   4.4810e-005       20.3888     0.8232   5.0135e-001  
   3.47   8.7290e-002   4.1950e-005       23.1694     0.9194   5.6425e-001  
   3.72   8.2720e-002   3.9440e-005       26.1072     1.0156   6.3085e-001  
   3.97   7.8650e-002   3.7230e-005       29.2023     1.1119   7.0300e-001  
   4.46   7.1700e-002   3.3500e-005       35.8530     1.4689   8.5285e-001  
   4.96   6.5980e-002   3.0480e-005       43.1161     1.8056   1.0175e+000  
   5.46   6.1170e-002   2.7990e-005       50.9767     2.1349   1.1932e+000  
   5.95   5.7070e-002   2.5880e-005       59.4313     2.4624   1.3838e+000  
   6.45   5.3540e-002   2.4080e-005       68.4667     2.7917   1.5836e+000  
   6.94   5.0450e-002   2.2530e-005       78.0756     3.1228   1.7964e+000  
   7.94   4.5310e-002   1.9980e-005       98.9713     4.3309   2.2589e+000  
   8.93   4.1200e-002   1.7960e-005      122.0944     5.4612   2.7657e+000  
   9.92   3.7830e-002   1.6330e-005      147.3988     6.5675   3.3171e+000  
  10.91   3.5010e-002   1.4980e-005      174.8491     7.6701   3.9128e+000  
  11.91   3.2620e-002   1.3850e-005      203.5000     8.7801   4.5510e+000  
  12.90   3.0560e-002   1.2880e-005      236.8000     9.9030   5.2318e+000  
  13.89   2.8770e-002   1.2040e-005      270.1000    11.0427   5.9551e+000  
  14.88   2.7190e-002   1.1310e-005      305.2500    12.1989   6.7192e+000  
  15.87   2.5800e-002   1.0670e-005      342.2500    13.3755   7.5221e+000  
  16.87   2.4550e-002   1.0100e-005      382.9500    14.5706   8.3657e+000  
  17.86   2.3430e-002   9.5850e-006      423.6500    15.7861   9.2500e+000  
  19.84   2.1500e-002   8.7090e-006      514.3000    20.3241   1.1131e+001  
  22.32   1.9520e-002   7.8240e-006      636.4000    26.8176   1.3697e+001  
  24.80   1.7910e-002   7.1070e-006      769.6000    32.9762   1.6495e+001  
  27.28   1.6570e-002   6.5160e-006      913.9000    39.0165   1.9516e+001  
  29.76   1.5440e-002   6.0180e-006     1071.1500    45.0364   2.2757e+001  
  32.24   1.4460e-002   5.5940e-006     1237.6500    51.0822   2.6211e+001  
  34.72   1.3620e-002   5.2270e-006     1415.2500    57.1817   2.9876e+001  
  37.20   1.2880e-002   4.9080e-006     1603.9501    63.3495   3.3746e+001  
  39.68   1.2230e-002   4.6260e-006     1803.7500    69.5952   3.7816e+001  
  44.65   1.1120e-002   4.1530e-006     2231.1001    92.7923   4.6552e+001  
  49.61   1.0220e-002   3.7710e-006     2701.0000   114.5705   5.6048e+001  
  54.57   9.4730e-003   3.4550e-006     3207.9001   135.7900   6.6282e+001  
  59.53   8.8430e-003   3.1900e-006     3753.6501   156.8208   7.7228e+001  
  64.49   8.3030e-003   2.9640e-006     4336.3999   177.8479   8.8865e+001  
  69.45   7.8360e-003   2.7690e-006     4956.1504   199.8000   1.0117e+002  
  79.37   7.0660e-003   2.4490e-006     6299.2500   275.6500   1.2770e+002  
  89.29   6.4590e-003   2.1970e-006     7779.2500   347.8000   1.5669e+002  
  99.21   5.9660e-003   1.9940e-006     9388.7500   418.1000   1.8870e+002  
 109.13   5.5580e-003   1.8260e-006    11124.0498   486.5500   2.2200e+002  
 119.05   5.2140e-003   1.6850e-006    12981.4492   553.1500   2.5715e+002  
 128.98   4.9210e-003   1.5650e-006    14953.5508   621.6000   2.9415e+002  
 138.90   4.6680e-003   1.4620e-006    17038.5000   690.0500   3.3485e+002  
 148.82   4.4480e-003   1.3720e-006    19230.7500   758.5000   3.7555e+002  
 158.74   4.2530e-003   1.2920e-006    21528.4512   828.8000   4.1810e+002  
 168.66   4.0810e-003   1.2220e-006    23927.8984   897.2500   4.6250e+002  
 178.58   3.9270e-003   1.1590e-006    26423.5508   967.5500   5.0875e+002  
 198.42   3.6630e-003   1.0510e-006    31694.2012  1224.7000   6.0495e+002  
 223.23   3.3980e-003   9.4260e-007    38776.0000  1589.1500   7.3260e+002  
 248.03   3.1850e-003   8.5490e-007    46370.2500  1923.9999   8.6765e+002  
 272.83   3.0090e-003   7.8260e-007    54441.8008  2242.2000   1.0101e+003  
 297.64   2.8630e-003   7.2200e-007    62953.6523  2551.1499   1.1581e+003  
 322.44   2.7390e-003   6.7030e-007    71878.0469  2852.7000   1.3098e+003  
 347.24   2.6320e-003   6.2570e-007    81183.5469  3148.7002   1.4670e+003  
 372.05   2.5400e-003   5.8690e-007    90846.1016  3441.0000   1.6280e+003  
 396.85   2.4600e-003   5.5270e-007   100841.6563  3727.7500   1.7945e+003  
 446.46   2.3260e-003   4.9540e-007   121737.3984  4769.3003   2.1331e+003  
 496.06   2.2200e-003   4.4920e-007   143732.0469  5707.2500   2.4827e+003  
 545.67   2.1340e-003   4.1100e-007   166696.0938  6580.4497   2.8398e+003  
 595.27   2.0630e-003   3.7900e-007   190550.0000  7407.4004   3.2023e+003  
 644.88   2.0040e-003   3.5180e-007   214600.0000  8195.5000   3.5687e+003  
 694.49   1.9540e-003   3.2830e-007   240499.9844  8954.0000   3.9387e+003  
 793.70   1.8750e-003   2.8990e-007   292300.0000  11630.9502   4.6824e+003  
 892.91   1.8160e-003   2.5970e-007   345950.0000  13950.8506   5.4260e+003  
 992.12   1.7710e-003   2.3540e-007   403300.0000  16046.8994   6.1679e+003  
 1091.33   1.7360e-003   2.1540e-007   458800.0000  17982.0000   6.9005e+003  
 1190.55   1.7080e-003   1.9860e-007   518000.0000  19789.4512   7.6257e+003  
 1289.76   1.6860e-003   1.8420e-007   577200.0000  21495.1504   8.3417e+003  
 1388.97   1.6680e-003   1.7190e-007   636400.0000  23112.0508   9.0446e+003  
 1488.18   1.6530e-003   1.6120e-007   695600.0000  24651.2500   9.7384e+003  
 1587.40   1.6420e-003   1.5170e-007   756650.0000  26123.8516   1.0417e+004  
 1686.61   1.6320e-003   1.4340e-007   817700.0000  27535.3984   1.1085e+004  
 1785.82   1.6240e-003   1.3590e-007   878750.0000  28893.2988   1.1742e+004  
 1984.25   1.6130e-003   1.2310e-007   1002700.0000  33799.5000   1.3018e+004  
 2004.09   1.6130e-003   1.2220e-007   1011949.9375  33830.9492   1.3118e+004  
Z =   2, num = 112
   0.11   1.8110e+000   3.4660e-003        0.3275     0.0161   2.1127e-002  
   0.12   1.8120e+000   3.1720e-003        0.3552     0.0167   2.1645e-002  
   0.14   1.8070e+000   2.9280e-003        0.3830     0.0173   2.2145e-002  
   0.15   1.7960e+000   2.7200e-003        0.4107     0.0178   2.2607e-002  
   0.16   1.7820e+000   2.5420e-003        0.4384     0.0184   2.3069e-002  
   0.17   1.7660e+000   2.3870e-003        0.4662     0.0189   2.3513e-002  
   0.20   1.7270e+000   2.1310e-003        0.5235     0.0208   2.4383e-002  
   0.22   1.6840e+000   1.9270e-003        0.5809     0.0226   2.5215e-002  
   0.25   1.6400e+000   1.7610e-003        0.6420     0.0243   2.6048e-002  
   0.27   1.5950e+000   1.6230e-003        0.7030     0.0260   2.6880e-002  
   0.30   1.5510e+000   1.5060e-003        0.7659     0.0277   2.7731e-002  
   0.32   1.5090e+000   1.4050e-003        0.8325     0.0294   2.8564e-002  
   0.35   1.4680e+000   1.3180e-003        0.8991     0.0311   2.9415e-002  
   0.37   1.4290e+000   1.2420e-003        0.9676     0.0328   3.0284e-002  
   0.40   1.3910e+000   1.1740e-003        1.0397     0.0344   3.1172e-002  
   0.42   1.3550e+000   1.1140e-003        1.1119     0.0361   3.2061e-002  
   0.45   1.3210e+000   1.0600e-003        1.1859     0.0378   3.2967e-002  
   0.50   1.2570e+000   9.6760e-004        1.3413     0.0440   3.4854e-002  
   0.56   1.1860e+000   8.7320e-004        1.5466     0.0531   3.7333e-002  
   0.62   1.1220e+000   7.9650e-004        1.7630     0.0617   3.9923e-002  
   0.69   1.0660e+000   7.3270e-004        1.9906     0.0700   4.2643e-002  
   0.75   1.0150e+000   6.7900e-004        2.2311     0.0782   4.5510e-002  
   0.81   9.6940e-001   6.3290e-004        2.4827     0.0863   4.8488e-002  
   0.87   9.2800e-001   5.9300e-004        2.7454     0.0944   5.1615e-002  
   0.94   8.9040e-001   5.5810e-004        3.0210     0.1025   5.4890e-002  
   1.00   8.5600e-001   5.2720e-004        3.3060     0.1106   5.8275e-002  
   1.12   7.9540e-001   4.7520e-004        3.9128     0.1406   6.5435e-002  
   1.25   7.4370e-001   4.3300e-004        4.5621     0.1688   7.3093e-002  
   1.37   6.9910e-001   3.9790e-004        5.2558     0.1961   8.1252e-002  
   1.50   6.6010e-001   3.6840e-004        5.9903     0.2220   8.9873e-002  
   1.62   6.2580e-001   3.4320e-004        6.7692     0.2498   9.8956e-002  
   1.75   5.9530e-001   3.2130e-004        7.5868     0.2756   1.0848e-001  
   2.00   5.4330e-001   2.8530e-004        9.3443     0.3719   1.2883e-001  
   2.25   4.9850e-001   2.5690e-004       11.2665     0.4625   1.5092e-001  
   2.50   4.5680e-001   2.3380e-004       13.3607     0.5513   1.7482e-001  
   2.75   4.2420e-001   2.1470e-004       15.6325     0.6401   1.9980e-001  
   3.00   3.9630e-001   1.9860e-004       18.0708     0.7289   2.2755e-001  
   3.25   3.7220e-001   1.8490e-004       20.6719     0.8177   2.5715e-001  
   3.50   3.5120e-001   1.7300e-004       23.4377     0.9102   2.8860e-001  
   3.75   3.3260e-001   1.6260e-004       26.3625     1.0008   3.2190e-001  
   4.00   3.1610e-001   1.5350e-004       29.4446     1.0952   3.5520e-001  
   4.25   3.0120e-001   1.4530e-004       32.6858     1.1896   3.9220e-001  
   4.50   2.8790e-001   1.3810e-004       36.0787     1.2858   4.2920e-001  
   5.00   2.6470e-001   1.2560e-004       43.3233     1.6484   5.0875e-001  
   5.62   2.4090e-001   1.1290e-004       53.2227     2.1700   6.1790e-001  
   6.25   2.2140e-001   1.0270e-004       64.0452     2.6622   7.3630e-001  
   6.87   2.0500e-001   9.4210e-005       75.7797     3.1450   8.6580e-001  
   7.50   1.9110e-001   8.7080e-005       88.4078     3.6242   1.0027e+000  
   8.12   1.7910e-001   8.1000e-005      101.9184     4.1070   1.1489e+000  
   8.74   1.6860e-001   7.5740e-005      116.3003     4.5917   1.3043e+000  
   9.37   1.5940e-001   7.1150e-005      131.5406     5.0819   1.4670e+000  
   9.99   1.5130e-001   6.7100e-005      147.6337     5.5796   1.6409e+000  
  11.24   1.3740e-001   6.0300e-005      182.3027     7.4481   2.0110e+000  
  12.49   1.2610e-001   5.4790e-005      220.1500     9.2038   2.4143e+000  
  13.74   1.1660e-001   5.0240e-005      260.8500    10.9169   2.8509e+000  
  14.99   1.0860e-001   4.6420e-005      305.2500    12.6207   3.3208e+000  
  16.24   1.0170e-001   4.3150e-005      353.3500    14.3264   3.8203e+000  
  17.49   9.5730e-002   4.0340e-005      403.3000    16.0469   4.3512e+000  
  19.99   8.5810e-002   3.5710e-005      514.3000    22.4368   5.5037e+000  
  22.49   7.7910e-002   3.2070e-005      636.4000    28.3883   6.7747e+000  
  24.98   7.1470e-002   2.9120e-005      771.4500    34.1936   8.1603e+000  
  27.48   6.6110e-002   2.6690e-005      915.7499    39.9730   9.6570e+000  
  29.98   6.1580e-002   2.4650e-005     1073.0000    45.7783   1.1263e+001  
  32.48   5.7690e-002   2.2900e-005     1241.3500    51.6391   1.2976e+001  
  34.98   5.4320e-002   2.1400e-005     1418.9501    57.5720   1.4794e+001  
  37.48   5.1360e-002   2.0090e-005     1607.6499    63.5845   1.6715e+001  
  39.97   4.8750e-002   1.8930e-005     1807.4501    69.6803   1.8735e+001  
  42.47   4.6420e-002   1.7910e-005     2018.3500    75.8611   2.0855e+001  
  44.97   4.4330e-002   1.6990e-005     2238.5000    82.1271   2.3069e+001  
  49.97   4.0740e-002   1.5420e-005     2710.2500   105.9255   2.7787e+001  
  56.21   3.7100e-002   1.3840e-005     3352.2002   139.8859   3.4199e+001  
  62.46   3.4130e-002   1.2560e-005     4055.2000   171.8706   4.1163e+001  
  68.71   3.1670e-002   1.1510e-005     4815.5503   203.5000   4.8657e+001  
  74.95   2.9600e-002   1.0620e-005     5631.3999   233.1000   5.6658e+001  
  81.20   2.7830e-002   9.8630e-006     6502.7505   264.5500   6.5151e+001  
  87.44   2.6300e-002   9.2110e-006     7425.8999   296.0000   7.4120e+001  
  93.69   2.4960e-002   8.6430e-006     8402.6992   327.4500   8.3544e+001  
  99.93   2.3780e-002   8.1430e-006     9427.5996   357.0500   9.3410e+001  
 112.43   2.1790e-002   7.3030e-006    11625.4004   475.4500   1.1442e+002  
 124.92   2.0180e-002   6.6250e-006    14010.0508   582.7500   1.3703e+002  
 137.41   1.8840e-002   6.0660e-006    16574.1484   688.2000   1.6114e+002  
 149.90   1.7730e-002   5.5960e-006    19310.2988   789.9500   1.8685e+002  
 162.39   1.6770e-002   5.1970e-006    22209.2500   891.7000   2.1275e+002  
 174.89   1.5950e-002   4.8520e-006    25265.4512   991.6000   2.4235e+002  
 199.87   1.4600e-002   4.2870e-006    31818.1504  1359.7500   3.0155e+002  
 224.85   1.3550e-002   3.8430e-006    38927.6992  1692.7499   3.6445e+002  
 249.84   1.2700e-002   3.4850e-006    46553.3984  2009.1000   4.3290e+002  
 274.82   1.2000e-002   3.1890e-006    54652.7031  2314.3501   5.0320e+002  
 299.80   1.1420e-002   2.9420e-006    63196.0000  2614.0500   5.7720e+002  
 324.79   1.0920e-002   2.7310e-006    72151.8516  2906.3501   6.5305e+002  
 349.77   1.0500e-002   2.5490e-006    81488.8047  3194.9502   7.3075e+002  
 374.76   1.0130e-002   2.3900e-006    91182.8047  3479.8499   8.1215e+002  
 399.74   9.8120e-003   2.2510e-006   101209.8047  3759.2000   8.9540e+002  
 424.72   9.5310e-003   2.1270e-006   111549.4453  4036.7000   9.7865e+002  
 449.71   9.2810e-003   2.0170e-006   122179.5469  4310.5000   1.0638e+003  
 499.67   8.8590e-003   1.8280e-006   144237.0938  5326.1504   1.2395e+003  
 562.13   8.4420e-003   1.6380e-006   173147.0469  6721.0503   1.4615e+003  
 624.59   8.1140e-003   1.4850e-006   203500.0000  7969.8003   1.6891e+003  
 687.05   7.8500e-003   1.3590e-006   234950.0000  9124.2002   1.9203e+003  
 749.51   7.6350e-003   1.2530e-006   266400.0000  10208.2998   2.1516e+003  
 811.97   7.4570e-003   1.1620e-006   299700.0000  11238.7500   2.3847e+003  
 874.43   7.3080e-003   1.0850e-006   334850.0000  12221.0996   2.6178e+003  
 936.89   7.1830e-003   1.0170e-006   368150.0000  13166.4492   2.8508e+003  
 999.35   7.0760e-003   9.5730e-007   403300.0000  14074.8008   3.0821e+003  
 1124.27   6.9070e-003   8.5740e-007   475450.0000  17341.9004   3.5409e+003  
 1249.19   6.7800e-003   7.7690e-007   547600.0000  20196.4492   3.9923e+003  
 1374.11   6.6840e-003   7.1060e-007   621600.0000  22773.5000   4.4363e+003  
 1499.02   6.6110e-003   6.5500e-007   697450.0000  25143.3516   4.8710e+003  
 1623.94   6.5550e-003   6.0760e-007   773299.9375  27350.3984   5.2947e+003  
 1748.86   6.5110e-003   5.6690e-007   849150.0000  29420.5488   5.7110e+003  
 1998.70   6.4530e-003   5.0020e-007   1004549.9375  36641.0977   6.5157e+003  
 2001.20   6.4530e-003   4.9980e-007   1004549.9375  36641.0977   6.5194e+003  
Z =   3, num = 112
   0.10   2.9530e+000   8.3950e-003        0.4144     0.0227   3.0858e-002  
   0.12   3.1100e+000   7.5100e-003        0.4477     0.0234   3.1468e-002  
   0.13   3.2290e+000   6.8050e-003        0.4791     0.0239   3.2005e-002  
   0.14   3.3140e+000   6.2280e-003        0.5106     0.0244   3.2467e-002  
   0.16   3.3700e+000   5.7470e-003        0.5402     0.0249   3.2874e-002  
   0.17   3.4030e+000   5.3400e-003        0.5698     0.0253   3.3263e-002  
   0.19   3.4160e+000   4.9890e-003        0.5976     0.0258   3.3633e-002  
   0.20   3.4150e+000   4.6850e-003        0.6271     0.0262   3.3966e-002  
   0.22   3.4040e+000   4.4180e-003        0.6568     0.0266   3.4280e-002  
   0.23   3.3860e+000   4.1820e-003        0.6863     0.0270   3.4595e-002  
   0.24   3.3630e+000   3.9710e-003        0.7160     0.0274   3.4891e-002  
   0.26   3.3360e+000   3.7810e-003        0.7456     0.0278   3.5187e-002  
   0.29   3.2770e+000   3.4550e-003        0.8066     0.0292   3.5760e-002  
   0.32   3.2000e+000   3.1220e-003        0.8824     0.0313   3.6426e-002  
   0.36   3.1240e+000   2.8510e-003        0.9620     0.0334   3.7092e-002  
   0.40   3.0480e+000   2.6260e-003        1.0434     0.0354   3.7740e-002  
   0.43   2.9750e+000   2.4360e-003        1.1248     0.0375   3.8387e-002  
   0.47   2.9030e+000   2.2730e-003        1.2099     0.0395   3.9035e-002  
   0.50   2.8330e+000   2.1310e-003        1.2969     0.0415   3.9683e-002  
   0.54   2.7640e+000   2.0070e-003        1.3875     0.0435   4.0330e-002  
   0.58   2.6970e+000   1.8970e-003        1.4782     0.0455   4.0978e-002  
   0.65   2.5690e+000   1.7120e-003        1.6687     0.0531   4.2328e-002  
   0.72   2.4470e+000   1.5620e-003        1.8667     0.0603   4.3734e-002  
   0.79   2.3330e+000   1.4370e-003        2.0757     0.0674   4.5195e-002  
   0.86   2.2260e+000   1.3310e-003        2.2959     0.0744   4.6712e-002  
   0.94   2.1270e+000   1.2410e-003        2.5252     0.0814   4.8322e-002  
   1.01   2.0340e+000   1.1620e-003        2.7657     0.0884   5.0005e-002  
