Material: UBe , density = 13.500000 g/cm^3
Absorber is made of 2 elements
92U 7% z =  92, a = 241.000000
9Be 93% z =   4, a = 9.000000
Z =   1, num = 114
   0.11   3.0510e-001   4.4400e-004        0.3472     0.0663   7.3305e-002  
   0.12   3.0000e-001   4.1610e-004        0.3780     0.0688   7.7355e-002  
   0.13   2.9480e-001   3.9180e-004        0.4096     0.0715   8.1270e-002  
   0.14   2.8940e-001   3.7050e-004        0.4417     0.0741   8.5320e-002  
   0.15   2.8400e-001   3.5160e-004        0.4747     0.0767   8.9370e-002  
   0.16   2.7870e-001   3.3480e-004        0.5083     0.0792   9.3420e-002  
   0.17   2.7340e-001   3.1960e-004        0.5426     0.0818   9.7605e-002  
   0.18   2.6820e-001   3.0590e-004        0.5777     0.0844   1.0179e-001  
   0.20   2.5820e-001   2.8200e-004        0.6499     0.0898   1.1029e-001  
   0.22   2.4660e-001   2.5740e-004        0.7445     0.0968   1.2123e-001  
   0.25   2.3590e-001   2.3710e-004        0.8438     0.1039   1.3257e-001  
   0.27   2.2610e-001   2.2000e-004        0.9476     0.1112   1.4418e-001  
   0.30   2.1710e-001   2.0540e-004        1.0560     0.1185   1.5633e-001  
   0.32   2.0890e-001   1.9280e-004        1.1690     0.1262   1.6875e-001  
   0.35   2.0150e-001   1.8180e-004        1.2863     0.1339   1.8171e-001  
   0.37   1.9460e-001   1.7210e-004        1.4040     0.1417   1.9494e-001  
   0.40   1.8830e-001   1.6340e-004        1.5390     0.1498   2.0857e-001  
   0.45   1.7700e-001   1.4860e-004        1.7955     0.1685   2.3706e-001  
   0.50   1.6730e-001   1.3650e-004        2.0790     0.1875   2.6703e-001  
   0.55   1.5890e-001   1.2640e-004        2.3760     0.2071   2.9848e-001  
   0.60   1.5150e-001   1.1770e-004        2.6865     0.2272   3.3129e-001  
   0.64   1.4480e-001   1.1030e-004        3.0240     0.2477   3.6544e-001  
   0.69   1.3890e-001   1.0380e-004        3.3615     0.2688   4.0095e-001  
   0.79   1.2860e-001   9.2990e-005        4.0905     0.3202   4.7560e-001  
   0.89   1.2010e-001   8.4370e-005        4.8735     0.3726   5.5525e-001  
   0.99   1.1280e-001   7.7310e-005        5.7105     0.4259   6.3949e-001  
   1.09   1.0680e-001   7.1420e-005        6.6015     0.4806   7.2806e-001  
   1.19   1.0090e-001   6.6410e-005        7.5330     0.5368   8.2107e-001  
   1.29   9.5890e-002   6.2110e-005        8.5320     0.5944   9.1868e-001  
   1.39   9.1530e-002   5.8370e-005        9.5715     0.6537   1.0205e+000  
   1.49   8.7610e-002   5.5080e-005       10.6650     0.7144   1.1263e+000  
   1.59   8.4080e-002   5.2160e-005       11.7990     0.7767   1.2363e+000  
   1.69   8.0860e-002   4.9560e-005       12.9870     0.8404   1.3500e+000  
   1.79   7.7930e-002   4.7220e-005       14.2155     0.9056   1.4715e+000  
   1.98   7.2760e-002   4.3190e-005       16.8210     1.0708   1.7145e+000  
   2.23   6.7320e-002   3.9070e-005       20.3175     1.2978   2.0385e+000  
   2.48   6.2760e-002   3.5720e-005       24.0840     1.5255   2.4030e+000  
   2.73   5.8870e-002   3.2920e-005       28.1070     1.7550   2.7675e+000  
   2.98   5.5510e-002   3.0560e-005       32.4000     1.9980   3.1590e+000  
   3.22   5.2560e-002   2.8530e-005       36.9360     2.2410   3.5775e+000  
   3.47   4.9960e-002   2.6770e-005       41.7150     2.4840   4.0095e+000  
   3.72   4.7640e-002   2.5220e-005       46.7505     2.7405   4.4685e+000  
   3.97   4.5560e-002   2.3860e-005       52.0155     3.0105   4.9410e+000  
   4.46   4.1970e-002   2.1550e-005       63.2340     3.7125   5.9535e+000  
   4.96   3.8980e-002   1.9670e-005       75.3705     4.4280   7.0335e+000  
   5.46   3.6440e-002   1.8110e-005       88.4115     5.1435   8.1810e+000  
   5.95   3.4250e-002   1.6790e-005      102.3165     5.8860   9.3960e+000  
   6.45   3.2350e-002   1.5660e-005      117.0720     6.6285   1.0679e+001  
   6.94   3.0670e-002   1.4680e-005      132.6780     7.3980   1.2028e+001  
   7.94   2.7850e-002   1.3060e-005      166.3200     9.5850   1.4931e+001  
   8.93   2.5570e-002   1.1780e-005      203.1885    11.7450   1.8076e+001  
   9.92   2.3670e-002   1.0740e-005      243.1755    13.9320   2.1479e+001  
  10.91   2.2070e-002   9.8750e-006      286.2405    16.1595   2.5097e+001  
  11.91   2.0700e-002   9.1470e-006      332.3025    18.4410   2.8958e+001  
  12.90   1.9510e-002   8.5230e-006      381.2940    20.7900   3.3048e+001  
  13.89   1.8460e-002   7.9830e-006      433.1880    23.1930   3.7354e+001  
  14.88   1.7540e-002   7.5110e-006      487.9170    25.6770   4.1864e+001  
  15.87   1.6710e-002   7.0940e-006      545.4540    28.2285   4.6602e+001  
  16.87   1.5970e-002   6.7230e-006      605.7585    30.8340   5.1543e+001  
  17.86   1.5300e-002   6.3910e-006      668.7766    33.5205   5.6687e+001  
  19.84   1.4140e-002   5.8200e-006      802.8045    41.2560   6.7581e+001  
  22.32   1.2930e-002   5.2420e-006      985.0545    52.1100   8.2310e+001  
  24.80   1.1950e-002   4.7720e-006     1183.3425    62.8425   9.8226e+001  
  27.28   1.1120e-002   4.3830e-006     1404.0000    73.6695   1.1529e+002  
  29.76   1.0410e-002   4.0560e-006     1620.0001    84.6855   1.3347e+002  
  32.24   9.7960e-003   3.7760e-006     1876.5000    95.9445   1.5277e+002  
  34.72   9.2620e-003   3.5340e-006     2133.0000   107.4600   1.7311e+002  
  37.20   8.7910e-003   3.3220e-006     2403.0000   119.2590   1.9449e+002  
  39.68   8.3720e-003   3.1350e-006     2686.5000   131.3550   2.1690e+002  
  44.65   7.6610e-003   2.8210e-006     3307.5000   167.7645   2.6471e+002  
  49.61   7.0770e-003   2.5660e-006     3982.5000   203.4315   3.1633e+002  
  54.57   6.5890e-003   2.3550e-006     4698.0000   239.1390   3.7167e+002  
  59.53   6.1750e-003   2.1780e-006     5467.5005   275.2515   4.3056e+002  
  64.49   5.8190e-003   2.0260e-006     6291.0000   311.9580   4.9287e+002  
  69.45   5.5090e-003   1.8950e-006     7168.5000   349.3665   5.5852e+002  
  79.37   4.9950e-003   1.6800e-006     9058.5000   465.0885   6.9941e+002  
  89.29   4.5860e-003   1.5100e-006    11124.0000   576.5985   8.5240e+002  
  99.21   4.2520e-003   1.3730e-006    13351.5000   687.2715   1.0168e+003  
 109.13   3.9750e-003   1.2590e-006    15768.0000   798.5115   1.1920e+003  
 119.05   3.7400e-003   1.1640e-006    18319.5000   910.9800   1.3770e+003  
 128.98   3.5400e-003   1.0820e-006    21046.5000  1025.0010   1.5660e+003  
 138.90   3.3660e-003   1.0120e-006    23908.4980  1140.7095   1.7820e+003  
 148.82   3.2130e-003   9.5020e-007    26919.0000  1258.1730   1.9845e+003  
 158.74   3.0790e-003   8.9610e-007    30064.5000  1377.0000   2.2140e+003  
 168.66   2.9590e-003   8.4800e-007    33331.5000  1498.5000   2.4435e+003  
 178.58   2.8520e-003   8.0500e-007    36747.0000  1620.0001   2.6730e+003  
 198.42   2.6690e-003   7.3130e-007    43915.5000  1998.0000   3.1725e+003  
 223.23   2.4840e-003   6.5680e-007    53527.5039  2524.5000   3.8205e+003  
 248.03   2.3340e-003   5.9660e-007    63814.5000  3024.0000   4.5090e+003  
 272.83   2.2110e-003   5.4680e-007    74709.0000  3509.9998   5.2245e+003  
 297.64   2.1080e-003   5.0500e-007    86184.0000  3996.0000   5.9805e+003  
 322.44   2.0210e-003   4.6930e-007    98172.0000  4468.5000   6.7500e+003  
 347.24   1.9460e-003   4.3860e-007   110673.0078  4927.5000   7.5465e+003  
 372.05   1.8810e-003   4.1170e-007   123619.5000  5400.0000   8.3565e+003  
 396.85   1.8240e-003   3.8810e-007   136998.0000  5859.0000   9.1800e+003  
 446.46   1.7300e-003   3.4830e-007   164902.5000  7317.0000   1.0881e+004  
 496.06   1.6560e-003   3.1620e-007   194211.0000  8667.0000   1.2636e+004  
 545.67   1.5950e-003   2.8970e-007   224748.0000  9936.0000   1.4405e+004  
 595.27   1.5460e-003   2.6740e-007   256351.5000  11164.5010   1.6214e+004  
 644.88   1.5040e-003   2.4850e-007   288900.0000  12339.0000   1.8036e+004  
 694.49   1.4700e-003   2.3210e-007   322285.5000  13472.9990   1.9859e+004  
 793.70   1.4150e-003   2.0520e-007   391162.5000  17091.0000   2.3531e+004  
 892.91   1.3750e-003   1.8410e-007   462388.5000  20290.5000   2.7203e+004  
 992.12   1.3450e-003   1.6710e-007   535504.5000  23220.0020   3.0834e+004  
 1091.33   1.3210e-003   1.5300e-007   610092.0000  25933.4980   3.4425e+004  
 1190.55   1.3030e-003   1.4120e-007   685894.5000  28498.5000   3.7962e+004  
 1289.76   1.2890e-003   1.3110e-007   762628.4375  30915.0000   4.1445e+004  
 1388.97   1.2780e-003   1.2240e-007   840132.0000  33223.5000   4.4861e+004  
 1488.18   1.2700e-003   1.1490e-007   918256.5000  35424.0000   4.8209e+004  
 1587.40   1.2630e-003   1.0820e-007   996840.0625  37530.0000   5.1489e+004  
 1686.61   1.2580e-003   1.0230e-007   1075815.0000  39555.0000   5.4716e+004  
 1785.82   1.2540e-003   9.7030e-008   1155073.5000  41512.5000   5.7861e+004  
 1984.25   1.2500e-003   8.8000e-008   1314171.0000  47911.5039   6.3990e+004  
 2004.09   1.2500e-003   8.7360e-008   1326834.0000  48006.0000   6.4463e+004  
Z =   2, num = 112
   0.11   8.6240e-001   1.9680e-003        0.6550     0.1056   1.2015e-001  
   0.12   8.7130e-001   1.8140e-003        0.7105     0.1083   1.2474e-001  
   0.14   8.7590e-001   1.6850e-003        0.7657     0.1108   1.2919e-001  
   0.15   8.7700e-001   1.5740e-003        0.8209     0.1131   1.3352e-001  
   0.16   8.7520e-001   1.4780e-003        0.8764     0.1154   1.3757e-001  
   0.17   8.7130e-001   1.3940e-003        0.9320     0.1177   1.4162e-001  
   0.20   8.5860e-001   1.2540e-003        1.0448     0.1223   1.4944e-001  
   0.22   8.4150e-001   1.1420e-003        1.1598     0.1269   1.5700e-001  
   0.25   8.2220e-001   1.0500e-003        1.2775     0.1312   1.6456e-001  
   0.27   8.0170e-001   9.7210e-004        1.4040     0.1355   1.7199e-001  
   0.30   7.8090e-001   9.0620e-004        1.5255     0.1399   1.7955e-001  
   0.32   7.6040e-001   8.4920e-004        1.6470     0.1442   1.8711e-001  
   0.35   7.4040e-001   7.9950e-004        1.7820     0.1485   1.9480e-001  
   0.37   7.2110e-001   7.5580e-004        1.9170     0.1528   2.0250e-001  
   0.40   7.0260e-001   7.1690e-004        2.0520     0.1573   2.1033e-001  
   0.42   6.8500e-001   6.8210e-004        2.2005     0.1617   2.1829e-001  
   0.45   6.6820e-001   6.5080e-004        2.3490     0.1663   2.2653e-001  
   0.50   6.3710e-001   5.9670e-004        2.6460     0.1781   2.4313e-001  
   0.56   6.0250e-001   5.4130e-004        3.0510     0.1948   2.6500e-001  
   0.62   5.7200e-001   4.9590e-004        3.4695     0.2117   2.8769e-001  
   0.69   5.4490e-001   4.5800e-004        3.9150     0.2291   3.1144e-001  
   0.75   5.2080e-001   4.2590e-004        4.3740     0.2468   3.3615e-001  
   0.81   4.9900e-001   3.9820e-004        4.8600     0.2647   3.6193e-001  
   0.87   4.7940e-001   3.7420e-004        5.3595     0.2831   3.8853e-001  
   0.94   4.6150e-001   3.5310e-004        5.8860     0.3017   4.1620e-001  
   1.00   4.4520e-001   3.3440e-004        6.4395     0.3208   4.4469e-001  
   1.12   4.1650e-001   3.0260e-004        7.5870     0.3776   5.0449e-001  
   1.25   3.9190e-001   2.7680e-004        8.8155     0.4336   5.6767e-001  
   1.37   3.7050e-001   2.5520e-004       10.1250     0.4895   6.3436e-001  
   1.50   3.5180e-001   2.3690e-004       11.5020     0.5457   7.0416e-001  
   1.62   3.3520e-001   2.2130e-004       12.9465     0.6022   7.7719e-001  
   1.75   3.2040e-001   2.0770e-004       14.4585     0.6595   8.5320e-001  
   2.00   2.9510e-001   1.8520e-004       17.6850     0.8394   1.0140e+000  
   2.25   2.7390e-001   1.6730e-004       21.1815     1.0121   1.1861e+000  
   2.50   2.5400e-001   1.5280e-004       24.9480     1.1833   1.3635e+000  
   2.75   2.3800e-001   1.4070e-004       28.9980     1.3500   1.5660e+000  
   3.00   2.2420e-001   1.3050e-004       33.3045     1.5255   1.7685e+000  
   3.25   2.1220e-001   1.2170e-004       37.8540     1.7010   1.9845e+000  
   3.50   2.0150e-001   1.1410e-004       42.6735     1.8900   2.2140e+000  
   3.75   1.9210e-001   1.0740e-004       47.7225     2.0655   2.4570e+000  
   4.00   1.8360e-001   1.0160e-004       53.0145     2.2545   2.7135e+000  
   4.25   1.7590e-001   9.6330e-005       58.5495     2.4435   2.9700e+000  
   4.50   1.6900e-001   9.1640e-005       64.3275     2.6325   3.2400e+000  
   5.00   1.5680e-001   8.3560e-005       76.5450     3.2535   3.8070e+000  
   5.62   1.4420e-001   7.5360e-005       93.0825     4.1445   4.5630e+000  
   6.25   1.3370e-001   6.8700e-005      111.0105     4.9950   5.3865e+000  
   6.87   1.2480e-001   6.3170e-005      130.2750     5.8320   6.2640e+000  
   7.50   1.1720e-001   5.8510e-005      150.8490     6.6690   7.1820e+000  
   8.12   1.1050e-001   5.4510e-005      172.7190     7.5195   8.1675e+000  
   8.74   1.0470e-001   5.1060e-005      195.8580     8.3700   9.1935e+000  
   9.37   9.9510e-002   4.8030e-005      220.2390     9.2340   1.0287e+001  
   9.99   9.4890e-002   4.5370e-005      245.8485    10.1115   1.1408e+001  
  11.24   8.6980e-002   4.0870e-005      300.6585    13.0950   1.3824e+001  
  12.49   8.0430e-002   3.7210e-005      360.1800    15.9435   1.6416e+001  
  13.74   7.4910e-002   3.4190e-005      424.3320    18.7380   1.9197e+001  
  14.99   7.0190e-002   3.1640e-005      493.0065    21.5325   2.2153e+001  
  16.24   6.6100e-002   2.9460e-005      566.1090    24.3405   2.5285e+001  
  17.49   6.2510e-002   2.7570e-005      643.5720    27.1620   2.8593e+001  
  19.99   5.6520e-002   2.4470e-005      811.1610    36.9225   3.5708e+001  
  22.49   5.1710e-002   2.2020e-005      995.4225    46.1160   4.3456e+001  
  24.98   4.7740e-002   2.0040e-005     1195.9380    55.1205   5.1826e+001  
  27.48   4.4410e-002   1.8390e-005     1417.4999    64.1115   6.0804e+001  
  29.98   4.1570e-002   1.7010e-005     1647.0000    73.1700   7.0376e+001  
  32.48   3.9120e-002   1.5830e-005     1890.0000    82.3230   8.0514e+001  
  34.98   3.6990e-002   1.4810e-005     2146.5000    91.5975   9.1206e+001  
  37.48   3.5100e-002   1.3910e-005     2430.0000   101.0205   1.0245e+002  
  39.97   3.3430e-002   1.3130e-005     2727.0000   110.5920   1.1424e+002  
  42.47   3.1930e-002   1.2430e-005     3024.0000   120.3255   1.2654e+002  
  44.97   3.0580e-002   1.1800e-005     3348.0000   130.1940   1.3935e+002  
  49.97   2.8240e-002   1.0730e-005     4023.0000   164.8890   1.6647e+002  
  56.21   2.5860e-002   9.6470e-006     4941.0000   214.1100   2.0308e+002  
  62.46   2.3900e-002   8.7690e-006     5953.5000   260.8875   2.4258e+002  
  68.71   2.2270e-002   8.0430e-006     7033.5000   306.6930   2.8484e+002  
  74.95   2.0890e-002   7.4330e-006     8181.0000   352.2015   3.2975e+002  
  81.20   1.9700e-002   6.9110e-006     9409.5000   397.7505   3.7720e+002  
  87.44   1.8670e-002   6.4610e-006    10705.5000   443.5290   4.2710e+002  
  93.69   1.7760e-002   6.0680e-006    12082.5000   489.6315   4.7936e+002  
  99.93   1.6960e-002   5.7220e-006    13513.5000   536.1255   5.3388e+002  
 112.43   1.5600e-002   5.1400e-006    16578.0000   700.4205   6.4946e+002  
 124.92   1.4500e-002   4.6700e-006    19899.0000   854.2935   7.7323e+002  
 137.41   1.3590e-002   4.2810e-006    23449.5020  1003.2120   9.0462e+002  
 149.90   1.2810e-002   3.9540e-006    27229.5000  1149.6060   1.0432e+003  
 162.39   1.2150e-002   3.6750e-006    31225.4980  1294.6636   1.1884e+003  
 174.89   1.1580e-002   3.4340e-006    35424.0000  1444.5001   1.3398e+003  
 199.87   1.0650e-002   3.0390e-006    44401.5000  1944.0001   1.6605e+003  
 224.85   9.9070e-003   2.7280e-006    54121.5000  2403.0000   1.9980e+003  
 249.84   9.3110e-003   2.4770e-006    64503.0000  2848.4998   2.3625e+003  
 274.82   8.8210e-003   2.2700e-006    75505.5000  3280.5000   2.7405e+003  
 299.80   8.4110e-003   2.0950e-006    87088.5000  3699.0000   3.1185e+003  
 324.79   8.0630e-003   1.9470e-006    99211.5000  4104.0000   3.5235e+003  
 349.77   7.7650e-003   1.8190e-006   111807.0000  4509.0000   3.9420e+003  
 374.76   7.5070e-003   1.7070e-006   124875.0000  4914.0000   4.3605e+003  
 399.74   7.2810e-003   1.6080e-006   138375.0000  5305.5000   4.7925e+003  
 424.72   7.0820e-003   1.5210e-006   152266.5000  5696.9995   5.2380e+003  
 449.71   6.9060e-003   1.4430e-006   166536.0000  6075.0000   5.6835e+003  
 499.67   6.6100e-003   1.3100e-006   196074.0000  7452.0000   6.5880e+003  
 562.13   6.3170e-003   1.1750e-006   234697.5156  9315.0000   7.7355e+003  
 624.59   6.0870e-003   1.0660e-006   274941.0000  11002.4990   8.9100e+003  
 687.05   5.9040e-003   9.7620e-007   316561.5000  12555.0000   1.0098e+004  
 749.51   5.7550e-003   9.0080e-007   359383.5000  14026.5000   1.1286e+004  
 811.97   5.6320e-003   8.3660e-007   403218.0000  15417.0000   1.2474e+004  
 874.43   5.5310e-003   7.8120e-007   447929.9688  16753.5000   1.3662e+004  
 936.89   5.4460e-003   7.3290e-007   493411.5000  18022.5000   1.4837e+004  
 999.35   5.3740e-003   6.9040e-007   539554.5000  19251.0000   1.6011e+004  
 1124.27   5.2630e-003   6.1900e-007   633433.5000  23530.5000   1.8333e+004  
 1249.19   5.1820e-003   5.6140e-007   729040.5625  27270.0020   2.0601e+004  
 1374.11   5.1220e-003   5.1400e-007   825970.5000  30658.4980   2.2815e+004  
 1499.02   5.0790e-003   4.7410e-007   923872.4375  33763.5000   2.4975e+004  
 1623.94   5.0480e-003   4.4020e-007   1022503.4375  36666.0000   2.7095e+004  
 1748.86   5.0250e-003   4.1090e-007   1121661.0000  39379.5000   2.9147e+004  
 1998.70   5.0000e-003   3.6290e-007   1320934.5000  48627.0000   3.3102e+004  
 2001.20   5.0000e-003   3.6270e-007   1321974.0000  48627.0000   3.3129e+004  
Z =   3, num = 112
   0.10   1.3000e+000   4.8340e-003        0.8170     0.1542   1.6996e-001  
   0.12   1.3740e+000   4.3630e-003        0.8886     0.1577   1.7590e-001  
   0.13   1.4330e+000   3.9830e-003        0.9570     0.1606   1.8117e-001  
   0.14   1.4780e+000   3.6690e-003        1.0233     0.1632   1.8603e-001  
   0.16   1.5110e+000   3.4050e-003        1.0882     0.1656   1.9035e-001  
   0.17   1.5340e+000   3.1800e-003        1.1521     0.1678   1.9440e-001  
   0.19   1.5490e+000   2.9850e-003        1.2153     0.1697   1.9831e-001  
   0.20   1.5580e+000   2.8140e-003        1.2782     0.1716   2.0196e-001  
   0.22   1.5620e+000   2.6640e-003        1.3408     0.1733   2.0533e-001  
   0.23   1.5620e+000   2.5300e-003        1.4040     0.1751   2.0871e-001  
   0.24   1.5590e+000   2.4100e-003        1.4715     0.1766   2.1195e-001  
   0.26   1.5540e+000   2.3010e-003        1.5255     0.1782   2.1519e-001  
   0.29   1.5400e+000   2.1140e-003        1.6605     0.1816   2.2126e-001  
   0.32   1.5170e+000   1.9210e-003        1.8225     0.1860   2.2869e-001  
   0.36   1.4910e+000   1.7630e-003        1.9845     0.1902   2.3584e-001  
   0.40   1.4630e+000   1.6310e-003        2.1465     0.1943   2.4286e-001  
   0.43   1.4350e+000   1.5190e-003        2.3220     0.1984   2.4988e-001  
   0.47   1.4060e+000   1.4220e-003        2.4975     0.2025   2.5690e-001  
   0.50   1.3770e+000   1.3370e-003        2.6730     0.2066   2.6379e-001  
   0.54   1.3480e+000   1.2630e-003        2.8485     0.2106   2.7081e-001  
   0.58   1.3190e+000   1.1970e-003        3.0375     0.2146   2.7783e-001  
   0.65   1.2640e+000   1.0860e-003        3.4290     0.2263   2.9214e-001  
   0.72   1.2110e+000   9.9410e-004        3.8205     0.2380   3.0685e-001  
   0.79   1.1600e+000   9.1780e-004        4.2390     0.2500   3.2197e-001  
   0.86   1.1130e+000   8.5310e-004        4.6845     0.2624   3.3763e-001  
   0.94   1.0690e+000   7.9740e-004        5.1300     0.2751   3.5383e-001  
   1.01   1.0280e+000   7.4910e-004        5.6160     0.2884   3.7071e-001  
